      74794      28.47N   80.57W
     T A B L E  II -   1.  T H E R M O D Y N A M I C  S T A T I S T I C A L  P A R A M E T E R S
                                   January
 Station =   74794      Cape Canaveral Air Force Station
    Z      MEAN P   SD P   SKEWP  MEAN T  SD T  SKEWT    MEAN D   SD D  SKEWD  NOBSP  NOBST  NOBSD
    KM       MB       MB             K      K             G/M3    G/M3                           
  0.000 1020.0000  5.0000   0.00 290.00   5.00   0.00 1221.0000 25.0000  0.00    100    100    100
  0.004 1019.2910  5.8170  -0.63 289.04   5.97  -0.39 1222.0630 31.7670  0.22   1496   1496   1496
  0.500  962.1950  4.3740  -0.13 288.26   4.79  -0.78 1157.1400 23.4400  0.61   1496   1496   1496
  1.000  906.9060  3.9760  -0.20 285.55   4.25  -0.66 1101.8430 19.4010  0.50   1496   1496   1496
  1.500  854.3850  3.7410  -0.33 283.61   3.87  -0.51 1046.0480 15.9410  0.43   1496   1496   1496
  2.000  804.6050  3.6290  -0.47 282.05   3.75  -0.28  991.4200 13.4650  0.29   1496   1496   1496
  2.500  757.3770  3.6360  -0.56 280.20   3.52  -0.09  939.8370 10.9220  0.09   1496   1496   1496
  3.000  712.6080  3.6940  -0.59 277.89   3.22  -0.09  891.9120  8.8960  0.05   1496   1496   1496
  3.500  670.1480  3.7580  -0.58 275.28   3.03  -0.09  846.9740  7.5010  0.05   1496   1496   1496
  4.000  629.7920  3.8140  -0.56 272.49   2.93  -0.01  804.2780  6.6340 -0.07   1496   1496   1496
  4.500  591.4840  3.8560  -0.54 269.63   2.87  -0.05  763.5300  5.9360 -0.13   1495   1495   1495
  5.000  555.1620  3.8910  -0.51 266.63   2.93   0.08  724.8510  5.6340 -0.23   1495   1495   1495
  5.500  520.6540  3.9230  -0.48 263.47   3.02   0.15  688.0270  5.4430 -0.25   1495   1495   1495
  6.000  487.8870  3.9580  -0.44 260.22   3.16   0.28  652.8650  5.2860 -0.38   1495   1495   1495
  6.500  456.8610  3.9910  -0.39 256.86   3.28   0.42  619.3990  5.1360 -0.46   1495   1495   1495
  7.000  427.3990  4.0230  -0.34 253.42   3.38   0.46  587.3580  4.9620 -0.44   1495   1495   1495
  7.500  399.4520  4.0500  -0.28 249.87   3.41   0.46  556.7750  4.6890 -0.35   1495   1495   1495
  8.000  373.0280  4.0830  -0.22 246.26   3.44   0.40  527.6050  4.4700 -0.29   1478   1478   1478
  8.500  347.9560  4.0850  -0.16 242.59   3.46   0.41  499.6070  4.3600 -0.31   1478   1478   1478
  9.000  324.2200  4.0640  -0.09 238.87   3.41   0.43  472.7990  4.3490 -0.57   1478   1478   1478
  9.500  301.7800  4.0740   0.03 235.05   3.38   0.50  447.2570  4.4640 -1.06   1375   1375   1375
 10.000  280.5500  4.0010   0.12 231.30   3.33   0.49  422.5390  4.7850 -1.44   1375   1375   1375
 10.500  260.5180  3.9000   0.22 227.68   3.30   0.55  398.6140  5.1730 -1.55   1375   1375   1375
 11.000  241.6630  3.7780   0.32 224.22   3.32   0.62  375.4990  5.6030 -1.41   1359   1359   1359
 11.500  223.8900  3.6180   0.41 221.14   3.36   0.63  352.7380  6.0850 -1.13   1359   1359   1359
 12.000  207.2320  3.4320   0.51 218.46   3.50   0.46  330.5120  6.5570 -0.70   1359   1359   1359
 12.500  191.6740  3.2200   0.60 216.21   3.69   0.16  308.9020  6.9100 -0.35   1358   1358   1358
 13.000  177.1090  3.0000   0.65 214.23   3.58  -0.12  288.0820  6.6480 -0.06   1357   1357   1357
 13.500  163.5580  2.7770   0.69 212.48   3.28  -0.28  268.2290  6.2050  0.22   1357   1357   1357
 14.000  150.9370  2.5550   0.70 210.74   2.99  -0.32  249.5650  5.8390  0.45   1355   1355   1355
 14.500  139.2230  2.3320   0.69 208.85   2.71  -0.22  232.2810  5.4450  0.58   1355   1355   1355
 15.000  128.3050  2.1150   0.68 206.77   2.68  -0.32  216.2220  5.2330  0.71   1355   1355   1355
 15.500  118.1380  1.8970   0.65 204.79   2.83  -0.48  201.0170  5.0610  0.77   1350   1350   1350
 16.000  108.7210  1.6930   0.62 203.06   2.99  -0.55  186.5780  4.8680  0.78   1348   1348   1348
 16.500   99.9780  1.4970   0.58 201.60   3.19  -0.46  172.8310  4.6400  0.76   1346   1346   1346
 17.000   91.8740  1.3110   0.55 200.55   3.39  -0.37  159.6600  4.3900  0.67   1341   1341   1341
 17.500   84.4270  1.1430   0.50 200.11   3.45  -0.26  147.0370  3.9580  0.59   1334   1334   1334
 18.000   77.5730  0.9950   0.45 200.27   3.52  -0.23  134.9930  3.5550  0.60   1319   1319   1319
 18.500   71.2610  0.8670   0.40 200.95   3.45  -0.18  123.5860  3.1080  0.57   1265   1265   1265
 19.000   65.5270  0.7560   0.33 201.95   3.40  -0.27  113.0760  2.7110  0.55   1223   1223   1223
 19.500   60.2240  0.6690   0.24 203.32   3.32  -0.29  103.2190  2.3510  0.47   1216   1216   1216
 20.000   55.4250  0.5940   0.20 204.83   3.19  -0.24   94.2900  1.9760  0.44   1178   1178   1178
 20.500   51.0560  0.5320   0.21 206.26   3.08  -0.14   86.2530  1.6590  0.42   1141   1141   1141
 21.000   46.9850  0.4860   0.10 207.74   3.05  -0.15   78.8090  1.4310  0.38   1128   1128   1128
 21.500   43.3410  0.4520   0.05 208.99   2.96  -0.13   72.2590  1.2090  0.32   1104   1104   1104
 22.000   40.0090  0.4230   0.06 210.21   2.93  -0.03   66.3160  1.0360  0.17   1088   1088   1088
 22.500   36.8570  0.3990  -0.01 211.34   2.94  -0.01   60.7640  0.9260  0.02   1084   1084   1084
 23.000   34.0530  0.3800  -0.00 212.30   2.88  -0.06   55.8850  0.8130 -0.05   1070   1070   1070
 23.500   31.4770  0.3600   0.04 213.23   2.90  -0.01   51.4330  0.7240 -0.05   1051   1051   1051
 24.000   29.0220  0.3470   0.02 214.10   2.88  -0.00   47.2260  0.6490 -0.18   1044   1044   1044
 24.500   26.8480  0.3310   0.10 215.00   2.91   0.02   43.5070  0.5920 -0.30   1027   1027   1027
 25.000   24.8470  0.3140   0.02 215.84   2.95   0.09   40.1060  0.5450 -0.35   1002   1002   1002
 25.500   22.9240  0.2990   0.01 216.87   3.10   0.17   36.8280  0.5230 -0.45    995    995    995
 26.000   21.2350  0.2890   0.04 217.80   3.24   0.43   33.9690  0.4820 -0.44    976    976    976
 26.500   19.6020  0.2780   0.05 218.74   3.42   0.50   31.2240  0.4830 -0.53    952    952    952
 27.000   18.1690  0.2690   0.06 219.61   3.57   0.55   28.8260  0.4490 -0.55    921    921    921
 27.500   16.8450  0.2590   0.09 220.43   3.59   0.48   26.6250  0.4070 -0.53    874    874    874
 28.000   15.5640  0.2490   0.05 221.38   3.67   0.57   24.4940  0.3960 -0.40    851    851    851
 28.500   14.4460  0.2430   0.11 222.32   3.79   0.51   22.6400  0.3770 -0.34    798    798    798
 29.000   13.4100  0.2390   0.17 223.17   3.95   0.43   20.9360  0.3540 -0.25    755    755    755
 29.500   12.3950  0.2310   0.17 224.15   4.01   0.38   19.2680  0.3490 -0.19    728    728    728
 30.000   11.5150  0.2220   0.23 224.92   4.13   0.22   17.8380  0.3310 -0.24    694    694    694
     T A B L E  II -   2.  T H E R M O D Y N A M I C  S T A T I S T I C A L  P A R A M E T E R S
                                  February
 Station =   74794      Cape Canaveral Air Force Station
    Z      MEAN P   SD P   SKEWP  MEAN T  SD T  SKEWT    MEAN D   SD D  SKEWD  NOBSP  NOBST  NOBSD
    KM       MB       MB             K      K             G/M3    G/M3                           
  0.000 1020.0000  5.0000   0.00 290.00   5.00   0.00 1221.0000 25.0000  0.00    100    100    100
  0.004 1018.3790  5.7480  -0.68 290.44   5.87  -0.40 1214.6600 29.9500  0.27   1653   1653   1653
  0.500  961.5030  4.6110  -0.33 289.02   4.75  -0.87 1153.0310 22.1120  0.65   1653   1653   1653
  1.000  906.3950  4.4160  -0.41 286.20   4.33  -0.81 1098.5291 18.5500  0.57   1653   1653   1653
  1.500  854.0130  4.3250  -0.51 284.06   3.88  -0.65 1043.7920 15.0350  0.44   1653   1653   1653
  2.000  804.3180  4.2960  -0.60 282.30   3.66  -0.37  990.0510 12.3860  0.28   1653   1653   1653
  2.500  757.1430  4.3220  -0.65 280.32   3.45  -0.16  939.0430 10.1800  0.09   1653   1653   1653
  3.000  712.4070  4.3660  -0.68 277.98   3.21  -0.17  891.3170  8.3250  0.06   1653   1653   1653
  3.500  669.9720  4.4080  -0.68 275.37   3.03  -0.11  846.4560  6.9950  0.02   1652   1652   1652
  4.000  629.6360  4.4420  -0.65 272.49   2.95  -0.09  804.0700  6.2650  0.04   1651   1651   1651
  4.500  591.3220  4.4620  -0.62 269.47   2.95  -0.12  763.7530  5.8320  0.04   1651   1651   1651
  5.000  554.9870  4.4730  -0.59 266.40   2.97  -0.05  725.2040  5.5630 -0.09   1651   1651   1651
  5.500  520.4600  4.4760  -0.56 263.25   3.03   0.06  688.3260  5.4780 -0.28   1651   1651   1651
  6.000  487.6870  4.4720  -0.52 260.04   3.15   0.11  653.0180  5.3880 -0.49   1651   1651   1651
  6.500  456.6500  4.4670  -0.49 256.67   3.30   0.16  619.5680  5.3600 -0.65   1651   1651   1651
  7.000  427.1790  4.4610  -0.46 253.18   3.40   0.20  587.6100  5.2980 -0.63   1651   1651   1651
  7.500  399.2200  4.4460  -0.41 249.62   3.42   0.23  557.0230  5.2040 -0.73   1651   1651   1651
  8.000  372.7760  4.4220  -0.36 246.02   3.47   0.23  527.7690  5.2060 -0.78   1640   1640   1640
  8.500  347.6930  4.3740  -0.30 242.36   3.51   0.22  499.7140  5.3110 -0.90   1640   1640   1640
  9.000  323.9560  4.3090  -0.24 238.69   3.56   0.18  472.7860  5.4130 -1.14   1640   1640   1640
  9.500  301.3520  4.2110  -0.14 234.91   3.65   0.18  446.8920  5.4480 -1.29   1509   1509   1509
 10.000  280.1410  4.1230  -0.06 231.22   3.65   0.19  422.0940  5.5970 -1.39   1509   1509   1509
 10.500  260.1320  4.0140   0.02 227.65   3.70   0.26  398.1060  5.9560 -1.40   1509   1509   1509
 11.000  241.3030  3.8820   0.11 224.29   3.83   0.31  374.8430  6.4020 -1.24   1500   1500   1500
 11.500  223.5690  3.7190   0.19 221.45   3.95   0.30  351.7680  6.9130 -0.93   1500   1500   1500
 12.000  206.9630  3.5280   0.28 219.01   4.05   0.18  329.2920  7.2230 -0.57   1500   1500   1500
 12.500  191.4730  3.3210   0.35 216.95   3.95  -0.05  307.5380  7.1730 -0.20   1499   1499   1499
 13.000  176.9750  3.0890   0.39 215.14   3.57  -0.33  286.6430  6.8510  0.12   1498   1498   1498
 13.500  163.4870  2.8490   0.40 213.24   3.19  -0.45  267.1540  6.4570  0.33   1498   1498   1498
 14.000  150.9060  2.6030   0.39 211.15   2.87  -0.40  249.0290  6.0600  0.53   1498   1498   1498
 14.500  139.2090  2.3620   0.37 209.09   2.69  -0.32  231.9960  5.6820  0.62   1498   1498   1498
 15.000  128.3040  2.1270   0.32 206.99   2.77  -0.38  215.9950  5.4550  0.67   1498   1498   1498
 15.500  118.1450  1.9080   0.26 204.95   2.91  -0.39  200.8820  5.2750  0.62   1482   1482   1482
 16.000  108.7330  1.6910   0.22 203.10   3.09  -0.33  186.5690  5.0560  0.54   1482   1482   1482
 16.500   99.9880  1.4820   0.18 201.58   3.27  -0.34  172.8710  4.7840  0.49   1482   1482   1482
 17.000   91.8850  1.2890   0.13 200.51   3.43  -0.27  159.7080  4.4690  0.40   1479   1479   1479
 17.500   84.4330  1.1100   0.10 200.00   3.55  -0.16  147.1360  4.0910  0.30   1475   1475   1475
 18.000   77.5670  0.9530   0.07 199.96   3.81  -0.12  135.2000  3.7550  0.21   1461   1461   1461
 18.500   71.2490  0.8220   0.07 200.51   3.76  -0.05  123.8430  3.2640  0.11   1416   1416   1416
 19.000   65.4920  0.7170   0.07 201.67   3.58   0.05  113.1750  2.7520  0.03   1362   1362   1362
 19.500   60.1860  0.6350   0.04 203.13   3.48   0.14  103.2560  2.3320 -0.00   1341   1341   1341
 20.000   55.3920  0.5650   0.04 204.63   3.32   0.09   94.3310  1.9620  0.05   1301   1301   1301
 20.500   51.0210  0.5150   0.04 206.15   3.19   0.13   86.2430  1.6570  0.06   1244   1244   1244
 21.000   46.9460  0.4700  -0.02 207.68   3.13   0.15   78.7660  1.4150  0.06   1223   1223   1223
 21.500   43.3030  0.4390   0.03 209.08   2.98   0.20   72.1640  1.1850  0.06   1190   1190   1190
 22.000   39.9760  0.4170   0.02 210.40   2.89   0.13   66.2010  1.0000  0.10   1178   1178   1178
 22.500   36.8260  0.3920   0.01 211.59   2.86   0.18   60.6410  0.8950 -0.01   1172   1172   1172
 23.000   34.0320  0.3750   0.05 212.47   2.81   0.18   55.8050  0.7940 -0.17   1161   1161   1161
 23.500   31.4640  0.3570   0.08 213.35   2.79   0.17   51.3820  0.7110 -0.22   1151   1151   1151
 24.000   29.0040  0.3420   0.11 214.26   2.70   0.22   47.1630  0.6510 -0.27   1144   1144   1144
 24.500   26.8420  0.3240   0.19 215.14   2.75   0.32   43.4700  0.5870 -0.18   1118   1118   1118
 25.000   24.8500  0.3110   0.21 216.02   2.77   0.29   40.0790  0.5420 -0.18   1096   1096   1096
 25.500   22.9240  0.2970   0.22 216.97   2.80   0.51   36.8120  0.5190 -0.39   1079   1079   1079
 26.000   21.2400  0.2850   0.22 217.90   2.88   0.62   33.9610  0.4900 -0.42   1058   1058   1058
 26.500   19.6050  0.2720   0.27 218.86   2.98   0.78   31.2090  0.4760 -0.42   1039   1039   1039
 27.000   18.1740  0.2590   0.25 219.77   3.01   0.81   28.8120  0.4410 -0.38    992    992    992
 27.500   16.8570  0.2460   0.29 220.77   3.16   0.77   26.6030  0.4150 -0.30    927    927    927
 28.000   15.5710  0.2360   0.30 221.78   3.35   0.68   24.4610  0.4090 -0.29    897    897    897
 28.500   14.4540  0.2240   0.29 222.64   3.60   0.60   22.6200  0.3910 -0.19    839    839    839
 29.000   13.4180  0.2120   0.29 223.58   3.73   0.55   20.9110  0.3680 -0.10    792    792    792
 29.500   12.4030  0.2020   0.23 224.55   3.71   0.42   19.2460  0.3520 -0.04    778    778    778
 30.000   11.5260  0.1930   0.28 225.58   3.68   0.29   17.8030  0.3250  0.07    729    729    729
     T A B L E  II -   3.  T H E R M O D Y N A M I C  S T A T I S T I C A L  P A R A M E T E R S
                                     March
 Station =   74794      Cape Canaveral Air Force Station
    Z      MEAN P   SD P   SKEWP  MEAN T  SD T  SKEWT    MEAN D   SD D  SKEWD  NOBSP  NOBST  NOBSD
    KM       MB       MB             K      K             G/M3    G/M3                           
  0.000 1020.0000  5.0000   0.00 290.00   5.00   0.00 1221.0000 25.0000  0.00    100    100    100
  0.004 1017.0240  5.9700  -0.42 292.08   5.41  -0.47 1205.8669 28.2260  0.22   1868   1868   1868
  0.500  960.5370  4.6580   0.00 289.95   4.33  -0.75 1147.9590 21.0750  0.46   1868   1868   1868
  1.000  905.6290  4.3020  -0.11 286.73   4.30  -0.62 1095.4340 19.1800  0.37   1868   1868   1868
  1.500  853.3600  4.0870  -0.30 284.26   4.01  -0.47 1042.1851 16.2040  0.28   1868   1868   1868
  2.000  803.7400  3.9950  -0.51 282.47   3.75  -0.26  988.7230 13.2550  0.14   1868   1868   1868
  2.500  756.6200  4.0020  -0.65 280.39   3.51  -0.12  938.2090 10.8010 -0.00   1868   1868   1868
  3.000  711.9160  4.0540  -0.70 277.97   3.33  -0.05  890.8230  9.0540 -0.06   1868   1868   1868
  3.500  669.4980  4.1140  -0.71 275.24   3.22   0.02  846.2900  7.8540 -0.07   1868   1868   1868
  4.000  629.1650  4.1710  -0.69 272.36   3.14   0.02  803.9270  6.9940 -0.06   1868   1868   1868
  4.500  590.8570  4.2210  -0.66 269.32   3.16   0.09  763.6350  6.4790 -0.12   1868   1868   1868
  5.000  554.5270  4.2760  -0.61 266.20   3.28   0.20  725.1930  6.1300 -0.22   1868   1868   1868
  5.500  520.0020  4.3320  -0.56 263.01   3.40   0.29  688.3870  5.9200 -0.28   1867   1867   1867
  6.000  487.2220  4.3860  -0.50 259.76   3.51   0.37  653.1390  5.6730 -0.29   1867   1867   1867
  6.500  456.1860  4.4320  -0.42 256.47   3.58   0.43  619.4410  5.5010 -0.32   1867   1867   1867
  7.000  426.7240  4.4630  -0.33 253.01   3.68   0.46  587.3930  5.4010 -0.34   1867   1867   1867
  7.500  398.7790  4.4850  -0.24 249.47   3.72   0.49  556.7520  5.2550 -0.31   1867   1867   1867
  8.000  372.3090  4.5090  -0.13 245.86   3.80   0.52  527.4540  5.1570 -0.46   1818   1818   1818
  8.500  347.2440  4.5010  -0.04 242.18   3.85   0.52  499.4450  5.0840 -0.62   1818   1818   1818
  9.000  323.5150  4.4800   0.05 238.43   3.85   0.51  472.6560  4.9810 -0.77   1817   1817   1817
  9.500  301.1040  4.4890   0.14 234.69   3.93   0.49  446.9490  4.9740 -0.84   1680   1680   1680
 10.000  279.8890  4.4340   0.22 230.96   3.87   0.50  422.1840  4.9920 -0.95   1680   1680   1680
 10.500  259.8730  4.3500   0.30 227.35   3.76   0.53  398.2080  5.2340 -1.07   1680   1680   1680
 11.000  241.0380  4.2410   0.40 224.05   3.72   0.48  374.8150  5.8410 -1.14   1663   1663   1663
 11.500  223.3010  4.0760   0.50 221.08   3.67   0.42  351.9160  6.5080 -1.02   1663   1663   1663
 12.000  206.6900  3.8690   0.60 218.62   3.64   0.34  329.4130  7.1310 -0.71   1663   1663   1663
 12.500  191.2010  3.6210   0.69 216.64   3.65   0.07  307.5440  7.5490 -0.28   1662   1662   1662
 13.000  176.7080  3.3430   0.75 214.95   3.45  -0.20  286.4630  7.4390  0.12   1662   1662   1662
 13.500  163.2340  3.0590   0.78 213.21   3.24  -0.38  266.7830  7.1380  0.46   1662   1662   1662
 14.000  150.6770  2.7730   0.78 211.39   3.09  -0.41  248.3930  6.8030  0.72   1662   1662   1662
 14.500  139.0130  2.4910   0.75 209.43   3.03  -0.41  231.3100  6.4770  0.92   1662   1662   1662
 15.000  128.1430  2.2210   0.70 207.45   3.13  -0.56  215.2640  6.1550  1.03   1662   1662   1662
 15.500  118.0190  1.9620   0.64 205.56   3.30  -0.72  200.0920  5.8480  1.05   1659   1659   1659
 16.000  108.6420  1.7200   0.57 203.85   3.45  -0.83  185.7490  5.4980  1.05   1659   1659   1659
 16.500   99.9400  1.4970   0.48 202.53   3.74  -0.67  171.9890  5.1820  0.94   1658   1658   1658
 17.000   91.8760  1.2920   0.39 201.61   3.85  -0.56  158.8420  4.7150  0.83   1657   1657   1657
 17.500   84.4700  1.1090   0.34 201.26   3.86  -0.48  146.2900  4.2260  0.74   1641   1641   1641
 18.000   77.6500  0.9490   0.29 201.40   3.76  -0.25  134.3780  3.6530  0.54   1616   1616   1616
 18.500   71.3850  0.8230   0.21 202.07   3.52  -0.15  123.1170  3.0750  0.43   1570   1570   1570
 19.000   65.6670  0.7190   0.16 203.10   3.38  -0.04  112.6760  2.5980  0.34   1507   1507   1507
 19.500   60.3810  0.6370   0.09 204.42   3.36  -0.01  102.9330  2.2260  0.35   1496   1496   1496
 20.000   55.6090  0.5740   0.06 205.99   3.11  -0.08   94.0670  1.8160  0.45   1446   1446   1446
 20.500   51.2560  0.5200   0.10 207.65   2.86  -0.17   86.0090  1.4810  0.48   1413   1413   1413
 21.000   47.1870  0.4810   0.07 209.08   2.67  -0.21   78.6350  1.2300  0.48   1397   1397   1397
 21.500   43.5510  0.4500   0.04 210.43   2.52  -0.24   72.1090  1.0240  0.60   1373   1373   1373
 22.000   40.2260  0.4250   0.01 211.67   2.40  -0.24   66.2110  0.8790  0.52   1347   1347   1347
 22.500   37.0740  0.4000  -0.02 212.84   2.36  -0.14   60.6870  0.7720  0.27   1337   1337   1337
 23.000   34.2750  0.3820  -0.01 213.82   2.30  -0.01   55.8470  0.6880  0.16   1325   1325   1325
 23.500   31.7050  0.3650   0.01 214.80   2.27   0.13   51.4230  0.6300 -0.00   1311   1311   1311
 24.000   29.2480  0.3400   0.09 215.77   2.32   0.15   47.2250  0.5840 -0.04   1300   1300   1300
 24.500   27.0750  0.3260   0.13 216.75   2.38   0.18   43.5200  0.5440 -0.06   1268   1268   1268
 25.000   25.0860  0.3080   0.20 217.79   2.44   0.29   40.1290  0.5000 -0.16   1240   1240   1240
 25.500   23.1570  0.2920   0.17 218.85   2.55   0.34   36.8660  0.4700 -0.23   1228   1228   1228
 26.000   21.4660  0.2790   0.24 219.84   2.63   0.31   34.0180  0.4300 -0.13   1208   1208   1208
 26.500   19.8260  0.2670   0.22 220.91   2.76   0.27   31.2670  0.4270 -0.25   1194   1194   1194
 27.000   18.3910  0.2530   0.25 222.07   2.78   0.29   28.8520  0.3960 -0.34   1149   1149   1149
 27.500   17.0700  0.2430   0.30 223.17   2.88   0.30   26.6480  0.3640 -0.36   1093   1093   1093
 28.000   15.7800  0.2320   0.31 224.36   3.00   0.25   24.5030  0.3560 -0.25   1066   1066   1066
 28.500   14.6610  0.2250   0.32 225.47   3.01   0.17   22.6540  0.3340 -0.16   1014   1014   1014
 29.000   13.6280  0.2170   0.37 226.59   3.12   0.05   20.9540  0.3140 -0.00    974    974    974
 29.500   12.6060  0.2060   0.31 227.77   3.18   0.13   19.2830  0.3100 -0.07    941    941    941
 30.000   11.7260  0.1950   0.43 228.85   3.23   0.13   17.8520  0.2930  0.07    887    887    887
     T A B L E  II -   4.  T H E R M O D Y N A M I C  S T A T I S T I C A L  P A R A M E T E R S
                                     April
 Station =   74794      Cape Canaveral Air Force Station
    Z      MEAN P   SD P   SKEWP  MEAN T  SD T  SKEWT    MEAN D   SD D  SKEWD  NOBSP  NOBST  NOBSD
