      74794      28.47N   80.57W
  T A B L E  III -   1.  M O I S T U R E  R E L A T E D  S T A T I S T I C A L  P A R A M E T E R S
                                   January
 Station =   74794      Cape Canaveral Air Force Station
      Z VAPOR P   SD VP SKEW VP      TV      TV SKEW TV DEWPT T  SD DPT SKW DPT NOBS TP NOBS TV   
           MEAN                    MEAN      SD            MEAN                                   
     KM      MB      MB          KELVIN  KELVIN          KELVIN  KELVIN                           
  0.000  16.000   6.000    0.00  291.00    6.00    0.00  290.00    7.00    0.00       0       0
  0.004  15.598   6.023    0.09  290.73    6.59   -0.34  285.62    6.60   -0.57    1496    1496
  0.500  13.291   5.598   -0.03  289.78    5.36   -0.67  282.83    7.71   -1.01    1496    1496
  1.000  10.517   5.122   -0.23  286.82    4.75   -0.57  278.42   10.14   -1.35    1496    1496
  1.500   7.815   4.590    0.03  284.60    4.21   -0.49  273.17   11.82   -1.15    1496    1496
  2.000   5.446   3.652    0.42  282.77    3.94   -0.33  267.99   11.32   -0.63    1496    1496
  2.500   4.087   2.934    0.70  280.77    3.63   -0.14  264.09   11.05   -0.49    1496    1496
  3.000   3.174   2.328    0.86  278.36    3.31   -0.12  260.94   10.65   -0.50    1496    1496
  3.500   2.470   1.885    1.01  275.66    3.09   -0.09  257.67   10.66   -0.52    1495    1495
  4.000   1.934   1.559    1.09  272.81    2.98   -0.02  254.39   10.93   -0.50    1495    1495
  4.500   1.461   1.212    1.29  269.89    2.91   -0.05  251.12   10.60   -0.50    1495    1495
  5.000   1.125   0.932    1.36  266.83    2.95    0.07  248.22   10.23   -0.47    1495    1495
  5.500   0.883   0.736    1.34  263.64    3.04    0.13  245.52   10.00   -0.41    1495    1495
  6.000   0.688   0.557    1.31  260.36    3.18    0.26  243.03    9.53   -0.47    1495    1495
  6.500   0.541   0.430    1.23  256.97    3.30    0.40  240.51    9.32   -0.48    1495    1495
  7.000   0.433   0.336    1.10  253.51    3.40    0.44  238.20    9.28   -0.57    1495    1495
  7.500   0.334   0.249    1.00  249.95    3.43    0.44  235.71    9.00   -0.69    1495    1495
  8.000   0.251   0.183    0.89  246.32    3.45    0.39  233.22    8.49   -0.72    1478    1478
  8.500   0.179   0.126    0.83  242.64    3.47    0.40  230.16    8.02   -0.78    1478    1478
  9.000   0.125   0.084    0.74  238.91    3.42    0.42  227.07    7.38   -0.74    1478    1478
  9.500   0.078   0.055    0.70  235.07    3.38    0.49  223.78    6.52   -0.74    1375    1375
 10.000   0.051   0.035    0.70  231.32    3.34    0.48  220.43    5.89   -0.73    1375    1375
 10.500   0.033   0.022    0.84  227.70    3.30    0.55  217.02    5.27   -0.68    1374    1374
 11.000   0.021   0.014    0.73  224.22    3.32    0.61  213.66    4.89   -0.81    1356    1356
 11.500   0.014   0.009    0.68  221.15    3.36    0.63  210.46    4.56   -0.88    1350    1350
 12.000 999.900 999.900  999.90  218.47    3.50    0.46  207.73    4.54   -0.90    1200    1200
 12.500 999.900 999.900  999.90  216.22    3.69    0.16  205.12    5.22   -0.92     895     895
 13.000 999.900 999.900  999.90  214.23    3.58   -0.12  202.70    5.80   -0.84     711     711
 13.500 999.900 999.900  999.90  212.48    3.28   -0.28  200.32    6.43   -0.60     372     372
 14.000 999.900 999.900  999.90  210.74    2.99   -0.32  199.36    6.14   -0.66     188     188
 14.500 999.900 999.900  999.90  208.85    2.71   -0.21  197.33    5.31   -0.53      31      31
 15.000 999.900 999.900  999.90  206.77    2.68   -0.32  999.90  999.90  999.90       0       0
 15.500 999.900 999.900  999.90  204.79    2.83   -0.48  999.90  999.90  999.90       0       0
 16.000 999.900 999.900  999.90  203.06    2.99   -0.55  999.90  999.90  999.90       0       0
 16.500 999.900 999.900  999.90  201.60    3.19   -0.46  999.90  999.90  999.90       0       0
 17.000 999.900 999.900  999.90  200.55    3.39   -0.37  999.90  999.90  999.90       0       0
 17.500 999.900 999.900  999.90  200.11    3.45   -0.26  999.90  999.90  999.90       0       0
 18.000 999.900 999.900  999.90  200.27    3.52   -0.23  999.90  999.90  999.90       0       0
 18.500 999.900 999.900  999.90  200.95    3.45   -0.18  999.90  999.90  999.90       0       0
 19.000 999.900 999.900  999.90  201.95    3.40   -0.27  999.90  999.90  999.90       0       0
 19.500 999.900 999.900  999.90  203.32    3.32   -0.29  999.90  999.90  999.90       0       0
 20.000 999.900 999.900  999.90  204.83    3.19   -0.24  999.90  999.90  999.90       0       0
 20.500 999.900 999.900  999.90  206.26    3.08   -0.14  999.90  999.90  999.90       0       0
 21.000 999.900 999.900  999.90  207.74    3.05   -0.15  999.90  999.90  999.90       0       0
 21.500 999.900 999.900  999.90  208.99    2.96   -0.13  999.90  999.90  999.90       0       0
 22.000 999.900 999.900  999.90  210.21    2.93   -0.03  999.90  999.90  999.90       0       0
 22.500 999.900 999.900  999.90  211.34    2.94   -0.01  999.90  999.90  999.90       0       0
 23.000 999.900 999.900  999.90  212.30    2.88   -0.06  999.90  999.90  999.90       0       0
 23.500 999.900 999.900  999.90  213.23    2.90   -0.01  999.90  999.90  999.90       0       0
 24.000 999.900 999.900  999.90  214.10    2.88   -0.00  999.90  999.90  999.90       0       0
 24.500 999.900 999.900  999.90  215.00    2.91    0.02  999.90  999.90  999.90       0       0
 25.000 999.900 999.900  999.90  215.84    2.95    0.09  999.90  999.90  999.90       0       0
 25.500 999.900 999.900  999.90  216.87    3.10    0.17  999.90  999.90  999.90       0       0
 26.000 999.900 999.900  999.90  217.80    3.24    0.43  999.90  999.90  999.90       0       0
 26.500 999.900 999.900  999.90  218.74    3.42    0.50  999.90  999.90  999.90       0       0
 27.000 999.900 999.900  999.90  219.61    3.57    0.55  999.90  999.90  999.90       0       0
 27.500 999.900 999.900  999.90  220.43    3.59    0.48  999.90  999.90  999.90       0       0
 28.000 999.900 999.900  999.90  221.38    3.67    0.57  999.90  999.90  999.90       0       0
 28.500 999.900 999.900  999.90  222.32    3.79    0.51  999.90  999.90  999.90       0       0
 29.000 999.900 999.900  999.90  223.17    3.95    0.43  999.90  999.90  999.90       0       0
 29.500 999.900 999.900  999.90  224.15    4.01    0.38  999.90  999.90  999.90       0       0
 30.000 999.900 999.900  999.90  224.92    4.13    0.22  999.90  999.90  999.90       0       0
  T A B L E  III -   2.  M O I S T U R E  R E L A T E D  S T A T I S T I C A L  P A R A M E T E R S
                                  February
 Station =   74794      Cape Canaveral Air Force Station
      Z VAPOR P   SD VP SKEW VP      TV      TV SKEW TV DEWPT T  SD DPT SKW DPT NOBS TP NOBS TV   
           MEAN                    MEAN      SD            MEAN                                   
     KM      MB      MB          KELVIN  KELVIN          KELVIN  KELVIN                           
  0.000  16.000   6.000    0.00  291.00    6.00    0.00  290.00    7.00    0.00       0       0
  0.004  16.380   5.924   -0.07  292.23    6.47   -0.37  286.47    6.40   -0.82    1653    1653
  0.500  13.746   5.469   -0.15  290.60    5.30   -0.79  283.46    7.42   -1.11    1653    1653
  1.000  10.887   4.960   -0.31  287.51    4.80   -0.74  279.18    9.73   -1.60    1653    1653
  1.500   8.086   4.531   -0.08  285.09    4.20   -0.62  273.87   11.47   -1.17    1653    1653
  2.000   5.666   3.638    0.29  283.06    3.85   -0.41  268.60   11.40   -0.80    1653    1653
  2.500   4.281   2.964    0.49  280.92    3.54   -0.24  264.59   11.55   -0.74    1653    1653
  3.000   3.268   2.323    0.67  278.47    3.26   -0.20  261.19   11.10   -0.69    1653    1653
  3.500   2.484   1.802    0.82  275.76    3.06   -0.13  257.76   10.92   -0.75    1652    1652
  4.000   1.929   1.438    0.91  272.81    2.97   -0.12  254.61   10.84   -0.77    1651    1651
  4.500   1.519   1.163    1.03  269.73    2.97   -0.13  251.80   10.52   -0.68    1651    1651
  5.000   1.186   0.929    1.11  266.62    3.00   -0.07  248.92   10.28   -0.60    1651    1651
  5.500   0.916   0.735    1.21  263.43    3.06    0.04  245.96   10.18   -0.61    1651    1651
  6.000   0.697   0.555    1.36  260.18    3.18    0.10  243.16    9.70   -0.61    1650    1650
  6.500   0.538   0.424    1.26  256.78    3.33    0.15  240.44    9.52   -0.63    1650    1650
  7.000   0.424   0.330    1.16  253.27    3.42    0.19  238.01    9.25   -0.60    1651    1651
  7.500   0.321   0.240    1.03  249.69    3.44    0.22  235.43    8.73   -0.61    1651    1651
  8.000   0.238   0.173    1.00  246.08    3.48    0.22  232.79    8.15   -0.62    1640    1640
  8.500   0.169   0.120    1.04  242.41    3.52    0.22  229.67    7.69   -0.63    1640    1640
  9.000   0.115   0.080    1.00  238.72    3.57    0.17  226.23    7.30   -0.69    1640    1640
  9.500   0.072   0.054    0.87  234.94    3.66    0.18  223.00    6.77   -0.84    1509    1509
 10.000   0.046   0.034    0.84  231.23    3.65    0.19  219.37    6.44   -0.89    1509    1509
 10.500   0.030   0.021    0.78  227.66    3.70    0.25  216.01    5.97   -1.00    1508    1508
 11.000   0.019   0.013    0.70  224.30    3.83    0.31  212.59    5.53   -0.99    1497    1497
 11.500   0.012   0.009    0.57  221.46    3.95    0.30  209.41    5.33   -1.05    1472    1472
 12.000 999.900 999.900  999.90  219.01    4.06    0.18  206.80    5.48   -1.14    1301    1301
 12.500 999.900 999.900  999.90  216.96    3.95   -0.05  204.18    6.14   -0.98    1031    1031
 13.000 999.900 999.900  999.90  215.14    3.57   -0.33  201.83    6.47   -0.82     897     897
 13.500 999.900 999.900  999.90  213.24    3.19   -0.45  199.42    6.82   -0.51     529     529
 14.000 999.900 999.900  999.90  211.15    2.87   -0.40  197.34    7.06   -0.43     246     246
 14.500 999.900 999.900  999.90  209.09    2.69   -0.32  195.98    5.76   -0.24      34      34
 15.000 999.900 999.900  999.90  206.99    2.77   -0.38  999.90  999.90  999.90       0       0
 15.500 999.900 999.900  999.90  204.95    2.91   -0.39  999.90  999.90  999.90       0       0
 16.000 999.900 999.900  999.90  203.10    3.09   -0.33  999.90  999.90  999.90       0       0
 16.500 999.900 999.900  999.90  201.58    3.27   -0.34  999.90  999.90  999.90       0       0
 17.000 999.900 999.900  999.90  200.51    3.43   -0.27  999.90  999.90  999.90       0       0
 17.500 999.900 999.900  999.90  200.00    3.55   -0.16  999.90  999.90  999.90       0       0
 18.000 999.900 999.900  999.90  199.96    3.81   -0.12  999.90  999.90  999.90       0       0
 18.500 999.900 999.900  999.90  200.51    3.76   -0.05  999.90  999.90  999.90       0       0
 19.000 999.900 999.900  999.90  201.67    3.58    0.05  999.90  999.90  999.90       0       0
 19.500 999.900 999.900  999.90  203.13    3.48    0.14  999.90  999.90  999.90       0       0
 20.000 999.900 999.900  999.90  204.63    3.32    0.09  999.90  999.90  999.90       0       0
 20.500 999.900 999.900  999.90  206.15    3.19    0.13  999.90  999.90  999.90       0       0
 21.000 999.900 999.900  999.90  207.68    3.13    0.15  999.90  999.90  999.90       0       0
 21.500 999.900 999.900  999.90  209.08    2.98    0.20  999.90  999.90  999.90       0       0
 22.000 999.900 999.900  999.90  210.40    2.89    0.13  999.90  999.90  999.90       0       0
 22.500 999.900 999.900  999.90  211.59    2.86    0.18  999.90  999.90  999.90       0       0
 23.000 999.900 999.900  999.90  212.47    2.81    0.18  999.90  999.90  999.90       0       0
 23.500 999.900 999.900  999.90  213.35    2.79    0.17  999.90  999.90  999.90       0       0
 24.000 999.900 999.900  999.90  214.26    2.70    0.22  999.90  999.90  999.90       0       0
 24.500 999.900 999.900  999.90  215.14    2.75    0.32  999.90  999.90  999.90       0       0
 25.000 999.900 999.900  999.90  216.02    2.77    0.29  999.90  999.90  999.90       0       0
 25.500 999.900 999.900  999.90  216.97    2.80    0.51  999.90  999.90  999.90       0       0
 26.000 999.900 999.900  999.90  217.90    2.88    0.62  999.90  999.90  999.90       0       0
 26.500 999.900 999.900  999.90  218.86    2.98    0.78  999.90  999.90  999.90       0       0
 27.000 999.900 999.900  999.90  219.77    3.01    0.81  999.90  999.90  999.90       0       0
 27.500 999.900 999.900  999.90  220.77    3.16    0.77  999.90  999.90  999.90       0       0
 28.000 999.900 999.900  999.90  221.78    3.35    0.68  999.90  999.90  999.90       0       0
 28.500 999.900 999.900  999.90  222.64    3.60    0.60  999.90  999.90  999.90       0       0
 29.000 999.900 999.900  999.90  223.58    3.73    0.55  999.90  999.90  999.90       0       0
 29.500 999.900 999.900  999.90  224.55    3.71    0.42  999.90  999.90  999.90       0       0
 30.000 999.900 999.900  999.90  225.58    3.68    0.29  999.90  999.90  999.90       0       0
  T A B L E  III -   3.  M O I S T U R E  R E L A T E D  S T A T I S T I C A L  P A R A M E T E R S
                                     March
 Station =   74794      Cape Canaveral Air Force Station
      Z VAPOR P   SD VP SKEW VP      TV      TV SKEW TV DEWPT T  SD DPT SKW DPT NOBS TP NOBS TV   
           MEAN                    MEAN      SD            MEAN                                   
     KM      MB      MB          KELVIN  KELVIN          KELVIN  KELVIN                           
  0.000  16.000   6.000    0.00  291.00    6.00    0.00  290.00    7.00    0.00       0       0
  0.004  16.992   6.154    0.09  293.95    5.98   -0.41  287.07    6.30   -0.71    1868    1868
  0.500  14.149   5.635    0.14  291.58    4.88   -0.64  284.01    6.98   -0.83    1868    1868
  1.000  11.219   4.832   -0.04  288.09    4.78   -0.55  280.11    8.33   -1.42    1868    1868
  1.500   8.335   4.553    0.02  285.31    4.36   -0.42  274.41   11.46   -1.35    1868    1868
  2.000   5.737   3.750    0.37  283.24    3.96   -0.26  268.51   12.06   -0.96    1868    1868
  2.500   4.172   2.925    0.56  280.98    3.64   -0.13  264.14   11.79   -0.82    1868    1868
  3.000   3.145   2.311    0.79  278.43    3.42   -0.05  260.57   11.27   -0.71    1868    1868
  3.500   2.440   1.798    0.86  275.62    3.28    0.02  257.36   11.27   -0.84    1868    1868
  4.000   1.851   1.391    1.02  272.66    3.19    0.03  254.09   10.77   -0.70    1868    1868
  4.500   1.432   1.114    1.24  269.57    3.21    0.09  251.12   10.40   -0.65    1868    1868
  5.000   1.115   0.885    1.31  266.40    3.31    0.19  248.21   10.25   -0.65    1868    1868
  5.500   0.872   0.700    1.32  263.18    3.44    0.28  245.44   10.11   -0.63    1867    1867
  6.000   0.673   0.545    1.38  259.89    3.54    0.36  242.63    9.93   -0.63    1867    1867
  6.500   0.524   0.430    1.38  256.58    3.61    0.42  239.86    9.92   -0.64    1867    1867
  7.000   0.410   0.334    1.29  253.10    3.70    0.44  237.41    9.58   -0.54    1867    1867
  7.500   0.311   0.245    1.16  249.54    3.74    0.48  234.76    9.23   -0.57    1867    1867
  8.000   0.231   0.179    1.08  245.92    3.82    0.51  232.42    8.56   -0.59    1818    1818
  8.500   0.165   0.127    1.15  242.23    3.86    0.51  229.40    8.01   -0.50    1818    1818
  9.000   0.115   0.086    1.17  238.47    3.86    0.51  226.31    7.34   -0.48    1817    1817
  9.500   0.074   0.058    1.08  234.71    3.94    0.49  223.41    6.45   -0.35    1680    1680
 10.000   0.048   0.037    1.03  230.97    3.88    0.50  219.92    6.06   -0.51    1679    1679
 10.500   0.031   0.023    0.89  227.37    3.77    0.53  216.54    5.57   -0.58    1679    1679
 11.000   0.020   0.014    0.85  224.05    3.72    0.48  213.16    5.24   -0.67    1661    1661
 11.500   0.013   0.009    0.71  221.08    3.67    0.42  210.22    4.83   -0.84    1648    1648
 12.000 999.900 999.900  999.90  218.63    3.64    0.34  207.87    4.78   -1.09    1450    1450
 12.500 999.900 999.900  999.90  216.64    3.65    0.07  205.37    5.68   -1.13    1115    1115
 13.000 999.900 999.900  999.90  214.96    3.45   -0.20  203.30    6.14   -1.05     949     949
 13.500 999.900 999.900  999.90  213.22    3.24   -0.37  201.77    6.47   -0.95     609     609
 14.000 999.900 999.900  999.90  211.39    3.09   -0.41  200.67    6.67   -1.00     314     314
 14.500 999.900 999.900  999.90  209.43    3.03   -0.41  201.22    6.31   -0.89      65      65
 15.000 999.900 999.900  999.90  207.45    3.13   -0.56  196.70    5.29    0.18      14      14
 15.500 999.900 999.900  999.90  205.56    3.30   -0.72  999.90  999.90  999.90       0       0
 16.000 999.900 999.900  999.90  203.85    3.45   -0.83  999.90  999.90  999.90       0       0
 16.500 999.900 999.900  999.90  202.53    3.74   -0.67  999.90  999.90  999.90       0       0
 17.000 999.900 999.900  999.90  201.61    3.85   -0.56  999.90  999.90  999.90       0       0
 17.500 999.900 999.900  999.90  201.26    3.86   -0.48  999.90  999.90  999.90       0       0
 18.000 999.900 999.900  999.90  201.40    3.76   -0.25  999.90  999.90  999.90       0       0
 18.500 999.900 999.900  999.90  202.07    3.52   -0.15  999.90  999.90  999.90       0       0
 19.000 999.900 999.900  999.90  203.10    3.38   -0.04  999.90  999.90  999.90       0       0
 19.500 999.900 999.900  999.90  204.42    3.36   -0.01  999.90  999.90  999.90       0       0
 20.000 999.900 999.900  999.90  205.99    3.11   -0.08  999.90  999.90  999.90       0       0
 20.500 999.900 999.900  999.90  207.65    2.86   -0.17  999.90  999.90  999.90       0       0
 21.000 999.900 999.900  999.90  209.08    2.67   -0.21  999.90  999.90  999.90       0       0
 21.500 999.900 999.900  999.90  210.43    2.52   -0.24  999.90  999.90  999.90       0       0
 22.000 999.900 999.900  999.90  211.67    2.40   -0.24  999.90  999.90  999.90       0       0
 22.500 999.900 999.900  999.90  212.84    2.36   -0.14  999.90  999.90  999.90       0       0
 23.000 999.900 999.900  999.90  213.82    2.30   -0.01  999.90  999.90  999.90       0       0
 23.500 999.900 999.900  999.90  214.80    2.27    0.13  999.90  999.90  999.90       0       0
 24.000 999.900 999.900  999.90  215.77    2.32    0.15  999.90  999.90  999.90       0       0
 24.500 999.900 999.900  999.90  216.75    2.38    0.18  999.90  999.90  999.90       0       0
 25.000 999.900 999.900  999.90  217.79    2.44    0.29  999.90  999.90  999.90       0       0
 25.500 999.900 999.900  999.90  218.85    2.55    0.34  999.90  999.90  999.90       0       0
 26.000 999.900 999.900  999.90  219.84    2.63    0.31  999.90  999.90  999.90       0       0
 26.500 999.900 999.900  999.90  220.91    2.76    0.27  999.90  999.90  999.90       0       0
 27.000 999.900 999.900  999.90  222.07    2.78    0.29  999.90  999.90  999.90       0       0
 27.500 999.900 999.900  999.90  223.17    2.88    0.30  999.90  999.90  999.90       0       0
 28.000 999.900 999.900  999.90  224.36    3.00    0.25  999.90  999.90  999.90       0       0
 28.500 999.900 999.900  999.90  225.47    3.01    0.17  999.90  999.90  999.90       0       0
 29.000 999.900 999.900  999.90  226.59    3.12    0.05  999.90  999.90  999.90       0       0
 29.500 999.900 999.900  999.90  227.77    3.18    0.13  999.90  999.90  999.90       0       0
 30.000 999.900 999.900  999.90  228.85    3.23    0.13  999.90  999.90  999.90       0       0
  T A B L E  III -   4.  M O I S T U R E  R E L A T E D  S T A T I S T I C A L  P A R A M E T E R S
                                     April
 Station =   74794      Cape Canaveral Air Force Station
      Z VAPOR P   SD VP SKEW VP      TV      TV SKEW TV DEWPT T  SD DPT SKW DPT NOBS TP NOBS TV   
           MEAN                    MEAN      SD            MEAN                                   
     KM      MB      MB          KELVIN  KELVIN          KELVIN  KELVIN                           
  0.000  16.000   6.000    0.00  291.00    6.00    0.00  290.00    7.00    0.00       0       0
